T(K),Cp_Thiswork
200.0,29.125602943504127
201.0,29.12632851865105
202.0,29.127076588674086
203.0,29.127847687714933
204.0,29.128642341504708
205.0,29.129461067204183
206.0,29.130304400789345
207.0,29.13117284149063
208.0,29.13206692739409
209.0,29.132987159418096
210.0,29.133934049230206
211.0,29.134908118835863
212.0,29.135909852597017
213.0,29.13693976518894
214.0,29.13799835361802
215.0,29.139086103857174
216.0,29.140203504194318
217.0,29.141351044983324
218.0,29.14252919809422
219.0,29.143738437040582
220.0,29.144979229991165
221.0,29.14625204635686
222.0,29.147557329457026
223.0,29.14889554383412
224.0,29.15026712755746
225.0,29.151672519197533
226.0,29.15311214403389
227.0,29.154586441213894
228.0,29.156095815762136
229.0,29.15764068628477
230.0,29.15922145747004
231.0,29.160838526780026
232.0,29.162492277368745
233.0,29.164183098737254
234.0,29.16591136586364
235.0,29.167677438963523
236.0,29.169481677330978
237.0,29.171324439363005
238.0,29.173206061280677
239.0,29.17512687814579
240.0,29.17708722392353
241.0,29.17908740993277
242.0,29.18112773890573
243.0,29.183208526761124
244.0,29.18533005914347
245.0,29.18749262024228
246.0,29.189696478102384
247.0,29.19194190671484
248.0,29.19422916389677
249.0,29.19655849857024
250.0,29.198930143120176
251.0,29.2013443360468
252.0,29.203801291634335
253.0,29.206301222660635
254.0,29.20884434062392
255.0,29.21143083242095
256.0,29.214060883522265
257.0,29.216734670260646
258.0,29.219452359820757
259.0,29.22221411023321
260.0,29.225020070372043
261.0,29.22787037174694
262.0,29.2307651612847
263.0,29.233704535594114
264.0,29.236688631792724
265.0,29.239717536328754
266.0,29.24279134309856
267.0,29.245910136924675
268.0,29.24907400225566
269.0,29.252282988575423
270.0,29.255537171077737
271.0,29.25883658103519
272.0,29.262181276073022
273.0,29.265571269402827
274.0,29.269006592149992
275.0,29.27248724859675
276.0,29.27601325252313
277.0,29.279584590668733
278.0,29.28320125968733
279.0,29.286863219499235
280.0,29.290570459209953
281.0,29.294322931158618
282.0,29.298120578997565
283.0,29.301963367229718
284.0,29.305851213161795
285.0,29.309784055259744
286.0,29.31376180409235
287.0,29.317784382214953
288.0,29.32185168410288
289.0,29.325963606381585
290.0,29.330120048341
291.0,29.33432087040684
292.0,29.338565956514216
293.0,29.342855172757595
294.0,29.34718837781753
295.0,29.3515654230511
296.0,29.35598614161946
297.0,29.360450370234467
298.0,29.36495793856065
299.0,29.369508680552123
300.0,29.374102401013303
301.0,29.378738909047833
302.0,29.383418007101753
303.0,29.388139479447297
304.0,29.392903126942002
305.0,29.397708732660618
306.0,29.40255604962174
307.0,29.407444883914057
308.0,29.412374964168926
309.0,29.417346072870366
310.0,29.422357938288698
311.0,29.42741033172215
312.0,29.432502969693672
313.0,29.43763558758454
314.0,29.44280794071321
315.0,29.448019716001742
316.0,29.453270658358765
317.0,29.458560469472538
318.0,29.46388885872227
319.0,29.46925553060967
320.0,29.47466018486672
321.0,29.480102516563733
322.0,29.485582202753278
323.0,29.491098942772222
324.0,29.49665240469102
325.0,29.502242265714525
326.0,29.507868198924317
327.0,29.51352988734493
328.0,29.519226968314797
329.0,29.524959117048926
330.0,29.530725976950784
331.0,29.536527230502443
332.0,29.542362485226988
333.0,29.54823141684296
334.0,29.554133654634242
335.0,29.560068839069526
336.0,29.566036607552615
337.0,29.57203659452554
338.0,29.57806841652788
339.0,29.584131717232964
340.0,29.59022612281122
341.0,29.596351226206956
342.0,29.602506678863428
343.0,29.60869208405765
344.0,29.61490705804919
345.0,29.621151214940276
346.0,29.627424166772308
347.0,29.6337255077082
348.0,29.640054845670218
349.0,29.646411802914194
350.0,29.652795967995992
351.0,29.659206960096213
352.0,29.665644348111574
353.0,29.672107748232584
354.0,29.678596759137342
355.0,29.685110961611805
356.0,29.69164996846103
357.0,29.698213374959863
358.0,29.70480074153069
359.0,29.711411695137993
360.0,29.71804581130337
361.0,29.724702664478087
362.0,29.73138188005686
363.0,29.738083014018223
364.0,29.744805656138347
365.0,29.75154941338956
366.0,29.758313857466906
367.0,29.765098594990235
368.0,29.77190317926427
369.0,29.77872723452284
370.0,29.785570313649036
371.0,29.792432023198728
372.0,29.79931193385359
373.0,29.806209652701632
374.0,29.813124750756465
375.0,29.820056835913036
376.0,29.82700546127805
377.0,29.833970254169362
378.0,29.84095076840466
379.0,29.84794661404268
380.0,29.854957383306147
381.0,29.861982650243867
382.0,29.869022008385294
383.0,29.8760750711974
384.0,29.883141415078278
385.0,29.890220636321615
386.0,29.89731233225678
387.0,29.904416101302836
388.0,29.9115315235707
389.0,29.918658219124474
390.0,29.925795770374176
391.0,29.93294380008231
392.0,29.94010189316279
393.0,29.94726965545575
394.0,29.954446694249803
395.0,29.961632598369803
396.0,29.96882701797719
397.0,29.976029524996335
398.0,29.983239752912528
399.0,29.990457296696086
400.0,29.997681793346935
401.0,30.004912820805654
402.0,30.012150039970727
403.0,30.019393052628608
404.0,30.026641482722273
405.0,30.033894935488263
406.0,30.041153059194272
407.0,30.048415462864497
408.0,30.055681798867425
409.0,30.0629517009978
410.0,30.07022476330022
411.0,30.077500665318425
412.0,30.084779005094454
413.0,30.09205946668822
414.0,30.099341652259895
415.0,30.106625229302228
416.0,30.1139098252829
417.0,30.1211951123064
418.0,30.12848074363027
419.0,30.135766332030315
420.0,30.143051577989915
421.0,30.150336120266722
422.0,30.157619599795993
423.0,30.164901724487493
424.0,30.172182118498494
425.0,30.17946047309443
426.0,30.186736438719578
427.0,30.194009711650764
428.0,30.20127994719607
429.0,30.208546824845968
430.0,30.21581004850594
431.0,30.223069258953878
432.0,30.230324187103577
433.0,30.237574478665774
434.0,30.244819847773982
435.0,30.252059989199562
436.0,30.25929457816622
437.0,30.266523336684685
438.0,30.27374594510757
439.0,30.280962108500113
440.0,30.2881715345501
441.0,30.29537395587834
442.0,30.30256904086761
443.0,30.309756549748364
444.0,30.316936156065275
445.0,30.324107603046997
446.0,30.331270591791036
447.0,30.33842487090622
448.0,30.34557014675638
449.0,30.352706173333416
450.0,30.359832662283495
451.0,30.366949350405203
452.0,30.374055977167814
453.0,30.381152284715125
454.0,30.38823801786061
455.0,30.39531292409096
456.0,30.402376753562088
457.0,30.409429236390167
458.0,30.41647015073888
459.0,30.42349923202365
460.0,30.430516263773782
461.0,30.437520963916377
462.0,30.444513166871737
463.0,30.451492573053258
464.0,30.45845897663491
465.0,30.465412151656896
466.0,30.472351874803017
467.0,30.479277925389894
468.0,30.486190085366985
469.0,30.49308811642906
470.0,30.499971828621508
471.0,30.50684098885452
472.0,30.513695412407394
473.0,30.52053487137711
474.0,30.52735916333539
475.0,30.534168111356188
476.0,30.540961495265538
477.0,30.547739097438757
478.0,30.554500771578272
479.0,30.561246282246966
480.0,30.567975488242134
481.0,30.5746881591949
482.0,30.58138411310837
483.0,30.588063216350942
484.0,30.594725223169192
485.0,30.60137002784402
486.0,30.60799738961019
487.0,30.614607184777576
488.0,30.621199246267434
489.0,30.627773363650796
490.0,30.634329397666697
491.0,30.640867211457586
492.0,30.64738660191871
493.0,30.65388745989234
494.0,30.66036958710297
495.0,30.666832856284575
496.0,30.67327711965889
497.0,30.679702208981375
498.0,30.686108004027943
499.0,30.69249434125479
500.0,30.69886110506379
501.0,30.705208159342394
502.0,30.71153532475112
503.0,30.717842515322793
504.0,30.72412957905994
505.0,30.730396388991796
506.0,30.736642843082215
507.0,30.742868773438186
508.0,30.749074105138895
509.0,30.75525867478129
510.0,30.761422389150525
511.0,30.767565134529423
512.0,30.773686799366985
513.0,30.7797872517119
514.0,30.78586640688006
515.0,30.791924159716622
516.0,30.79796038470441
517.0,30.80397498095612
518.0,30.80996787209085
519.0,30.81593896128885
520.0,30.8218881314141
521.0,30.827815289808548
522.0,30.83372034584094
523.0,30.83960321088239
524.0,30.845463820551153
525.0,30.85130204565902
526.0,30.85711784798537
527.0,30.862911102369978
528.0,30.86868177435679
529.0,30.874429742762707
530.0,30.880154954765118
531.0,30.88585733726291
532.0,30.89153679704292
533.0,30.89719330876853
534.0,30.902826760969045
535.0,30.908437088066485
536.0,30.91402424815458
537.0,30.91958817917061
538.0,30.925128799054573
539.0,30.930646071154502
540.0,30.936139895317886
541.0,30.941610281759772
542.0,30.947057112215894
543.0,30.952480378524083
544.0,30.957880009277467
545.0,30.963255956413278
546.0,30.96860819500256
547.0,30.97393663735354
548.0,30.9792412618729
549.0,30.984522048427657
550.0,30.98977891445562
551.0,30.995011864319473
552.0,31.0002208188147
553.0,31.005405764118333
554.0,31.01056666668162
555.0,31.015703494486264
556.0,31.020816217039112
557.0,31.025904784394225
558.0,31.030969190124104
559.0,31.036009408224032
560.0,31.04102539332625
561.0,31.04601716403806
562.0,31.05098463638707
563.0,31.055927831790953
564.0,31.060846731423347
565.0,31.065741297291577
566.0,31.070611513500552
567.0,31.075457406459954
568.0,31.08027890143294
569.0,31.08507602747011
570.0,31.08984875358817
571.0,31.09459707059028
572.0,31.099320990771503
573.0,31.10402048720414
574.0,31.108695554527152
575.0,31.11334618864644
576.0,31.1179724066873
577.0,31.122574166984442
578.0,31.127151509049106
579.0,31.131704413662987
580.0,31.13623288279792
581.0,31.14073691958908
582.0,31.145216528334533
583.0,31.149671714477975
584.0,31.15410248458793
585.0,31.158508846358664
586.0,31.16289080858865
587.0,31.16724838116245
588.0,31.171581575047263
589.0,31.175890383043008
590.0,31.18017485675911
591.0,31.18443497190927
592.0,31.1886707628773
593.0,31.192882245832607
594.0,31.19706943793299
595.0,31.20123233845744
596.0,31.205370985522016
597.0,31.20948539923009
598.0,31.213575600610593
599.0,31.217641593012118
600.0,31.221683418085014
601.0,31.225701099650955
602.0,31.22969464398387
603.0,31.233664095249438
604.0,31.237609479918603
605.0,31.241530807095565
606.0,31.245428123345107
607.0,31.249301439590834
608.0,31.253150803935952
609.0,31.25697622907304
610.0,31.260777764608505
611.0,31.264555442805488
612.0,31.268309278947264
613.0,31.27203930707374
614.0,31.275745579604497
615.0,31.279428114306818
616.0,31.283086964961996
617.0,31.286722168375057
618.0,31.290333727302162
619.0,31.293921714996152
620.0,31.29748617035998
621.0,31.30102711580659
622.0,31.30454460892684
623.0,31.30803865657284
624.0,31.311509351639923
625.0,31.314956685436833
626.0,31.318380734887214
627.0,31.32178154345991
628.0,31.325159121866392
629.0,31.328513548437815
630.0,31.3318448684425
631.0,31.335153094764827
632.0,31.338438323491708
633.0,31.341700552368742
634.0,31.34493986189394
635.0,31.34815628394489
636.0,31.351349867343707
637.0,31.3545206774955
638.0,31.357668748063134
639.0,31.360794129420384
640.0,31.36389688826128
641.0,31.366977059963936
642.0,31.370034696371157
643.0,31.373069865404624
644.0,31.37608258850432
645.0,31.37907295008268
646.0,31.382041003581165
647.0,31.384986772222923
648.0,31.38791034128294
649.0,31.3908117654967
650.0,31.393691069794208
651.0,31.396548340236734
652.0,31.39938361782764
653.0,31.402196959112736
654.0,31.404988435873463
655.0,31.407758090455708
656.0,31.410505980558632
657.0,31.413232178817488
658.0,31.415936728892262
659.0,31.418619689529322
660.0,31.421281119838746
661.0,31.423921093512263
662.0,31.426539655861248
663.0,31.429136881091743
664.0,31.431712801214644
665.0,31.434267505133914
666.0,31.43680105361595
667.0,31.439313479987646
668.0,31.441804873604227
669.0,31.444275282369176
670.0,31.446724782029023
671.0,31.449153421191777
672.0,31.451561262495943
673.0,31.453948382252214
674.0,31.4563148300497
675.0,31.458660669280427
676.0,31.460985976767617
677.0,31.463290803057248
678.0,31.4655752252575
679.0,31.467839294507222
680.0,31.470083075354815
681.0,31.47230664533391
682.0,31.474510056482192
683.0,31.476693386554672
684.0,31.478856688142567
685.0,31.48100002677589
686.0,31.483123480608967
687.0,31.485227102981455
688.0,31.487310972253404
689.0,31.489375154479085
690.0,31.49141969158333
691.0,31.493444686565994
692.0,31.4954501697639
693.0,31.497436244050924
694.0,31.499402940533983
695.0,31.501350361876135
696.0,31.50327855162398
697.0,31.505187577279948
698.0,31.507077517948595
699.0,31.50894844114802
700.0,31.510800403143683
701.0,31.512633483221723
702.0,31.514447738004876
703.0,31.516243246879554
704.0,31.518020077913185
705.0,31.519778288339907
706.0,31.521517957550994
707.0,31.523239153967026
708.0,31.524941935308696
709.0,31.526626381054157
710.0,31.52829255984861
711.0,31.529940529908394
712.0,31.53157037070784
713.0,31.53318215119335
714.0,31.53477594024772
715.0,31.53635180694104
716.0,31.5379098102177
717.0,31.539450029469037
718.0,31.540972533974802
719.0,31.542477392929285
720.0,31.54396466579778
721.0,31.54543444171282
722.0,31.546886770424603
723.0,31.548321731228143
724.0,31.549739403146805
725.0,31.551139836441386
726.0,31.5525231103057
727.0,31.55388929427388
728.0,31.555238457906437
729.0,31.556570670789615
730.0,31.55788600250883
731.0,31.559184522691787
732.0,31.560466300948015
733.0,31.561731406908045
734.0,31.562979918957705
735.0,31.56421188906799
736.0,31.56542740438846
737.0,31.566626517086206
738.0,31.567809314043302
739.0,31.568975856167157
740.0,31.570126212986352
741.0,31.571260454047795
742.0,31.57237865711152
743.0,31.573480883242826
744.0,31.574567201893547
745.0,31.575637682478394
746.0,31.576692402301383
747.0,31.577731422615273
748.0,31.57875481270824
749.0,31.579762649512087
750.0,31.580754994376903
751.0,31.58173191640604
752.0,31.582693492209025
753.0,31.583639783109575
754.0,31.58457086539388
755.0,31.585486800488486
756.0,31.586387664402288
757.0,31.58727351849143
758.0,31.58814443142719
759.0,31.589000485758746
760.0,31.589841735722814
761.0,31.59066824975584
762.0,31.591480102896732
763.0,31.59227736320051
764.0,31.593060091919803
765.0,31.59382836369138
766.0,31.59458224618784
767.0,31.59532180070237
768.0,31.596047107521883
769.0,31.59675822140661
770.0,31.597455209787
771.0,31.59813815232268
772.0,31.59880710378689
773.0,31.599462137285506
774.0,31.60010332556537
775.0,31.600730723402734
776.0,31.601344397618053
777.0,31.601944426274343
778.0,31.60253086973828
779.0,31.603103794270684
780.0,31.603663265852624
781.0,31.604209350422593
782.0,31.60474211376637
783.0,31.605261621413774
784.0,31.60576793889824
785.0,31.606261131511072
786.0,31.606741264459824
787.0,31.60720840765405
788.0,31.60766261606153
789.0,31.60810396422675
790.0,31.608532516474696
791.0,31.608948327582993
792.0,31.609351471370204
793.0,31.60974200709058
794.0,31.61011999862796
795.0,31.610485514220215
796.0,31.610838612877952
797.0,31.611179362328155
798.0,31.6115078172065
799.0,31.611824053137482
800.0,31.612128124721128
801.0,31.61242009451145
802.0,31.612700029121513
803.0,31.61296799083097
804.0,31.613224037759203
805.0,31.61346823212351
806.0,31.613700639370382
807.0,31.613921321180165
808.0,31.614130338865294
809.0,31.614327750167433
810.0,31.614513619669587
811.0,31.614688008354026
812.0,31.614850976849176
813.0,31.615002582434016
814.0,31.61514288888966
815.0,31.61527195632114
816.0,31.61538984489021
817.0,31.615496614369512
818.0,31.615592324444343
819.0,31.615677034657175
820.0,31.615750801636764
821.0,31.6158136901554
822.0,31.615865756533207
823.0,31.615907059559532
824.0,31.615937655464055
825.0,31.615957607944637
826.0,31.615966975210206
827.0,31.615965810735304
828.0,31.61595417503306
829.0,31.615932128301147
830.0,31.615899726122233
831.0,31.61585702611832
832.0,31.615804087713418
833.0,31.615740966363106
834.0,31.61566771915199
835.0,31.615584403360156
836.0,31.615491077569793
837.0,31.61538779856761
838.0,31.615274621248858
839.0,31.615151602193073
840.0,31.615018799323856
841.0,31.61487626740479
842.0,31.614724063940365
843.0,31.614562244903958
844.0,31.61439086490428
845.0,31.61420998086526
846.0,31.61401964733948
847.0,31.613819920926797
848.0,31.613610856941186
849.0,31.613392510872547
850.0,31.61316493659991
851.0,31.61292819035328
852.0,31.612682327018852
853.0,31.61242740134782
854.0,31.612163468078673
855.0,31.611890581879905
856.0,31.611608796541944
857.0,31.611318167894765
858.0,31.611018749245176
859.0,31.61071059481299
860.0,31.610393759239415
861.0,31.61006829623569
862.0,31.609734259644604
863.0,31.60939170332866
864.0,31.60904068103584
865.0,31.608681246265917
866.0,31.608313452477056
867.0,31.60793735319679
868.0,31.607553001422655
869.0,31.607160450501873
870.0,31.60675975321581
871.0,31.606350962761713
872.0,31.605934131561163
873.0,31.60550931256491
874.0,31.605076558384752
875.0,31.60463592111763
876.0,31.604187453347684
877.0,31.603731206622008
878.0,31.603267233782613
879.0,31.60279558581785
880.0,31.602316314432755
881.0,31.601829471826967
882.0,31.60133510886299
883.0,31.60083327624951
884.0,31.60032402624854
885.0,31.599807408616762
886.0,31.59928347399301
887.0,31.598752272645815
888.0,31.598213856128247
889.0,31.597668271895692
890.0,31.597115572390166
891.0,31.596555805528332
892.0,31.595989020819644
893.0,31.595415267207073
894.0,31.59483459166053
895.0,31.594247045981717
896.0,31.59365267676101
897.0,31.593051531765738
898.0,31.59244365689386
899.0,31.591829102938494
900.0,31.591207912938827
901.0,31.590580135464368
902.0,31.58994581672663
903.0,31.589305000405368
904.0,31.58865773618662
905.0,31.588004062733273
906.0,31.58734403106876
907.0,31.586677680859392
908.0,31.586005058515674
909.0,31.58532620521708
910.0,31.584641165288453
911.0,31.583949982368235
912.0,31.583252692695744
913.0,31.58254934557086
914.0,31.581839974438587
915.0,31.58112462745222
916.0,31.580403336569468
917.0,31.579676147312117
918.0,31.578943095631786
919.0,31.578204219598298
920.0,31.577459560904956
921.0,31.576709153860683
922.0,31.575953035191063
923.0,31.575191241823898
924.0,31.574423812378114
925.0,31.573650777003905
926.0,31.572872176568715
927.0,31.572088039142596
928.0,31.57129840539903
929.0,31.570503303136185
930.0,31.569702771293606
931.0,31.56889684066583
932.0,31.568085539775907
933.0,31.567268904430158
934.0,31.566446966916054
935.0,31.56561975881025
936.0,31.564787311926416
937.0,31.563949657828953
938.0,31.56310682428618
939.0,31.56225884612742
940.0,31.561405751297453
941.0,31.560547578876232
942.0,31.55968435335697
943.0,31.55881610650171
944.0,31.55794287521753
945.0,31.557064691763568
946.0,31.556181586463623
947.0,31.55529359395483
948.0,31.554400753507913
949.0,31.553503100778883
950.0,31.552600670161585
951.0,31.551693499572103
952.0,31.550781630283915
953.0,31.54986510783571
954.0,31.548943972667036
955.0,31.54801827022903
956.0,31.547088054419113
957.0,31.54615337115272
958.0,31.545214274194315
959.0,31.54427082157256
960.0,31.54332307286048
961.0,31.542371092194834
962.0,31.54141494889902
963.0,31.540454715175212
964.0,31.5394904736738
965.0,31.53852229690306
966.0,31.53755027878114
967.0,31.536574513748292
968.0,31.53559510143637
969.0,31.53461215100203
970.0,31.53362577272423
971.0,31.532636099772745
972.0,31.531643253470552
973.0,31.5306473810914
974.0,31.52964862861049
975.0,31.528647167845527
976.0,31.527643160612428
977.0,31.526636792258074
978.0,31.525628266332934
979.0,31.524617792547026
980.0,31.52360559183899
981.0,31.522591910657084
982.0,31.521577000061207
983.0,31.52056113994802
984.0,31.519544616908604
985.0,31.518527743007116
986.0,31.51751085666383
987.0,31.516494304921423
988.0,31.515478471399152
989.0,31.51446374485287
990.0,31.513450563489428
991.0,31.512439374590564
992.0,31.511430666107707
993.0,31.510424936944318
994.0,31.509422743703055
995.0,31.508424655771197
996.0,31.507431284385127
997.0,31.506443278701433
998.0,31.50546132503074
999.0,31.504486151556176
1000.0,31.509713920726654
1001.0,31.50851536385762
1002.0,31.507315287967813
1003.0,31.506113705905086
1004.0,31.504910649739415
1005.0,31.503706125737217
1006.0,31.502500159464162
1007.0,31.50129276999538
1008.0,31.500083976353274
1009.0,31.49887379750754
1010.0,31.497662245671457
